boundary_risk,compatibility_score,next_edge_id,observed_transition_count,prev_edge_id
0.32257068157196045,0.834085687994957,e000391,1,e000390
0.32257068157196045,0.834085687994957,e000392,1,e000391
0.32257068157196045,0.834085687994957,e000582,1,e000392
0.32257068157196045,0.834085687994957,e000583,1,e000582
0.32257068157196045,0.834085687994957,e000584,1,e000583
0.36612579226493835,0.0,e000000,1,e000584
0.36612579226493835,0.0,e000001,1,e000000
0.36612579226493835,0.0,e000002,1,e000001
0.36612579226493835,0.0,e000192,1,e000002
0.36612579226493835,0.0,e000193,1,e000192
0.36612579226493835,0.0,e000194,1,e000193
0.3363288938999176,0.8270023614168167,e000394,1,e000393
0.3363288938999176,0.8270023614168167,e000395,1,e000394
0.3363288938999176,0.8270023614168167,e000585,1,e000395
0.3363288938999176,0.8270023614168167,e000586,1,e000585
0.3363288938999176,0.8270023614168167,e000587,1,e000586
0.3363288938999176,0.4374212622642517,e000195,1,e000587
0.24341747164726257,0.4374212622642517,e000196,1,e000195
0.24341747164726257,0.4374212622642517,e000197,1,e000196
0.24341747164726257,0.4374212622642517,e000198,1,e000197
0.24341747164726257,0.4374212622642517,e000199,1,e000198
0.24341747164726257,0.4374212622642517,e000200,1,e000199
0.4591677784919739,0.0,e000003,1,e000200
0.4591677784919739,0.0,e000004,1,e000003
0.4591677784919739,0.0,e000005,1,e000004
0.3242538571357727,0.8334708958864212,e000397,1,e000396
0.3242538571357727,0.8334708958864212,e000398,1,e000397
0.3242538571357727,0.8334708958864212,e000588,1,e000398
0.3242538571357727,0.8334708958864212,e000589,1,e000588
0.3242538571357727,0.8334708958864212,e000590,1,e000589
0.3242538571357727,0.7834306359291077,e000201,1,e000590
0.23660433292388916,0.7834306359291077,e000202,1,e000201
0.23660433292388916,0.7834306359291077,e000203,1,e000202
0.30002257227897644,0.0,e000006,1,e000203
0.30002257227897644,0.0,e000007,1,e000006
0.30002257227897644,0.0,e000008,1,e000007
0.35052478313446045,0.8188538104295731,e000400,1,e000399
0.35052478313446045,0.8188538104295731,e000401,1,e000400
0.35052478313446045,0.8188538104295731,e000591,1,e000401
0.35052478313446045,0.8188538104295731,e000592,1,e000591
0.35052478313446045,0.8188538104295731,e000593,1,e000592
0.35052478313446045,0.81376763433218,e000204,1,e000593
0.20295806229114532,0.81376763433218,e000205,1,e000204
0.20295806229114532,0.81376763433218,e000206,1,e000205
0.4477664828300476,0.0,e000009,1,e000206
0.4477664828300476,0.0,e000010,1,e000009
0.4477664828300476,0.0,e000011,1,e000010
0.3527049720287323,0.8177225887775421,e000403,1,e000402
0.3527049720287323,0.8177225887775421,e000404,1,e000403
0.3527049720287323,0.8177225887775421,e000594,1,e000404
0.3527049720287323,0.8177225887775421,e000595,1,e000594
0.3527049720287323,0.8177225887775421,e000596,1,e000595
0.3527049720287323,0.8177225887775421,e000207,1,e000596
0.17429398000240326,0.8410641327500343,e000208,1,e000207
0.17429398000240326,0.8410641327500343,e000209,1,e000208
0.3268284499645233,0.0,e000012,1,e000209
0.3268284499645233,0.0,e000013,1,e000012
0.3268284499645233,0.0,e000014,1,e000013
0.3548397719860077,0.8173305094242096,e000406,1,e000405
0.3548397719860077,0.8173305094242096,e000407,1,e000406
0.3548397719860077,0.8173305094242096,e000597,1,e000407
0.3548397719860077,0.8173305094242096,e000598,1,e000597
0.3548397719860077,0.8173305094242096,e000599,1,e000598
0.3548397719860077,0.8173305094242096,e000210,1,e000599
0.19007430970668793,0.8475320562720299,e000211,1,e000210
0.19007430970668793,0.8475320562720299,e000212,1,e000211
0.26429593563079834,0.0,e000015,1,e000212
0.26429593563079834,0.0,e000016,1,e000015
0.26429593563079834,0.0,e000017,1,e000016
0.36897382140159607,0.810184583067894,e000409,1,e000408
0.36897382140159607,0.810184583067894,e000410,1,e000409
0.36897382140159607,0.810184583067894,e000600,1,e000410
0.36897382140159607,0.810184583067894,e000601,1,e000600
0.36897382140159607,0.810184583067894,e000602,1,e000601
0.36897382140159607,0.810184583067894,e000213,1,e000602
0.2088432013988495,0.8478581756353378,e000214,1,e000213
0.2088432013988495,0.8478581756353378,e000215,1,e000214
0.3239564597606659,0.0,e000018,1,e000215
0.3239564597606659,0.0,e000019,1,e000018
0.3239564597606659,0.0,e000020,1,e000019
0.3902798891067505,0.7996215522289276,e000412,1,e000411
0.3902798891067505,0.7996215522289276,e000413,1,e000412
0.3902798891067505,0.7996215522289276,e000603,1,e000413
0.3902798891067505,0.7996215522289276,e000604,1,e000603
0.3902798891067505,0.7996215522289276,e000605,1,e000604
0.3902798891067505,0.7996215522289276,e000216,1,e000605
0.20331446826457977,0.8552917465567589,e000217,1,e000216
0.20331446826457977,0.8552917465567589,e000218,1,e000217
0.4121599793434143,0.0,e000021,1,e000218
0.4121599793434143,0.0,e000022,1,e000021
0.4121599793434143,0.0,e000023,1,e000022
0.39366668462753296,0.7981135994195938,e000415,1,e000414
0.39366668462753296,0.7981135994195938,e000416,1,e000415
0.39366668462753296,0.7981135994195938,e000606,1,e000416
0.39366668462753296,0.7981135994195938,e000607,1,e000606
0.39366668462753296,0.7981135994195938,e000608,1,e000607
0.39366668462753296,0.7981135994195938,e000219,1,e000608
0.20602676272392273,0.863648921251297,e000220,1,e000219
0.20602676272392273,0.863648921251297,e000221,1,e000220
0.2255191057920456,0.030499812215566635,e000024,1,e000221
0.2255191057920456,0.030499812215566635,e000025,1,e000024
0.2255191057920456,0.030499812215566635,e000026,1,e000025
0.22076618671417236,0.8610527217388153,e000223,1,e000222
0.22076618671417236,0.8610527217388153,e000224,1,e000223
0.38089850544929504,0.8038690835237503,e000417,1,e000224
0.38089850544929504,0.8038690835237503,e000418,1,e000417
0.38089850544929504,0.8038690835237503,e000419,1,e000418
0.38089850544929504,0.8038690835237503,e000609,1,e000419
0.38089850544929504,0.8038690835237503,e000610,1,e000609
0.38089850544929504,0.8038690835237503,e000611,1,e000610
0.38089850544929504,0.0,e000027,1,e000611
0.27891725301742554,0.0,e000028,1,e000027
0.27891725301742554,0.0,e000029,1,e000028
0.1956549435853958,0.8743873760104179,e000226,1,e000225
0.1956549435853958,0.8743873760104179,e000227,1,e000226
0.3515150249004364,0.8180147707462311,e000420,1,e000227
0.3515150249004364,0.8180147707462311,e000421,1,e000420
0.3515150249004364,0.8180147707462311,e000422,1,e000421
0.3515150249004364,0.8180147707462311,e000612,1,e000422
0.3515150249004364,0.8180147707462311,e000613,1,e000612
0.3515150249004364,0.8180147707462311,e000614,1,e000613
0.43853867053985596,0.0,e000030,1,e000614
0.43853867053985596,0.0,e000031,1,e000030
0.43853867053985596,0.0,e000032,1,e000031
0.20568184554576874,0.8724439367651939,e000229,1,e000228
0.20568184554576874,0.8724439367651939,e000230,1,e000229
0.3556770980358124,0.8169597536325455,e000423,1,e000230
0.3556770980358124,0.8169597536325455,e000424,1,e000423
0.3556770980358124,0.8169597536325455,e000425,1,e000424
0.3556770980358124,0.8169597536325455,e000615,1,e000425
0.3556770980358124,0.8169597536325455,e000616,1,e000615
0.3556770980358124,0.8169597536325455,e000617,1,e000616
0.3556770980358124,0.0,e000033,1,e000617
0.33961260318756104,0.0,e000034,1,e000033
0.33961260318756104,0.0,e000035,1,e000034
0.22054947912693024,0.8711627349257469,e000232,1,e000231
0.22054947912693024,0.8711627349257469,e000233,1,e000232
0.2775876224040985,0.8471421748399734,e000426,1,e000233
0.2775876224040985,0.8471421748399734,e000427,1,e000426
0.2775876224040985,0.8471421748399734,e000428,1,e000427
0.2775876224040985,0.8471421748399734,e000618,1,e000428
0.2775876224040985,0.8471421748399734,e000619,1,e000618
0.2775876224040985,0.8471421748399734,e000620,1,e000619
0.46754467487335205,0.0,e000036,1,e000620
0.46754467487335205,0.0,e000037,1,e000036
0.46754467487335205,0.0,e000038,1,e000037
0.2777051031589508,0.8446222096681595,e000430,1,e000429
0.2777051031589508,0.8446222096681595,e000431,1,e000430
0.2777051031589508,0.8446222096681595,e000621,1,e000431
0.2777051031589508,0.8446222096681595,e000622,1,e000621
0.2777051031589508,0.8446222096681595,e000623,1,e000622
0.2777051031589508,0.5155434533953667,e000234,1,e000623
0.17524059116840363,0.5155434533953667,e000235,1,e000234
0.17524059116840363,0.5155434533953667,e000236,1,e000235
0.1784263700246811,0.0,e000039,1,e000236
0.1784263700246811,0.0,e000040,1,e000039
0.1784263700246811,0.0,e000041,1,e000040
0.2658454179763794,0.85182885825634,e000433,1,e000432
0.2658454179763794,0.85182885825634,e000434,1,e000433
0.2658454179763794,0.85182885825634,e000624,1,e000434
0.2658454179763794,0.85182885825634,e000625,1,e000624
0.2658454179763794,0.85182885825634,e000626,1,e000625
0.2658454179763794,0.85182885825634,e000237,1,e000626
0.12912917137145996,0.8942664116621017,e000238,1,e000237
0.12912917137145996,0.8942664116621017,e000239,1,e000238
0.20542900264263153,0.0,e000042,1,e000239
0.20542900264263153,0.0,e000043,1,e000042
0.20542900264263153,0.0,e000044,1,e000043
0.14634165167808533,0.8971384614706039,e000241,1,e000240
0.14634165167808533,0.8971384614706039,e000242,1,e000241
0.2813478410243988,0.8446332365274429,e000435,1,e000242
0.2813478410243988,0.8446332365274429,e000436,1,e000435
0.2813478410243988,0.8446332365274429,e000437,1,e000436
0.2813478410243988,0.8446332365274429,e000627,1,e000437
0.2813478410243988,0.8446332365274429,e000628,1,e000627
0.2813478410243988,0.8446332365274429,e000629,1,e000628
0.2813478410243988,0.0,e000045,1,e000629
0.23751062154769897,0.0,e000046,1,e000045
0.23751062154769897,0.0,e000047,1,e000046
0.16246452927589417,0.8904746025800705,e000244,1,e000243
0.16246452927589417,0.8904746025800705,e000245,1,e000244
0.2744660973548889,0.843547135591507,e000438,1,e000245
0.2744660973548889,0.843547135591507,e000439,1,e000438
0.2744660973548889,0.843547135591507,e000440,1,e000439
0.2744660973548889,0.843547135591507,e000630,1,e000440
0.2744660973548889,0.843547135591507,e000631,1,e000630
0.2744660973548889,0.843547135591507,e000632,1,e000631
0.2744660973548889,0.0,e000048,1,e000632
0.19843310117721558,0.0,e000049,1,e000048
0.19843310117721558,0.0,e000050,1,e000049
0.31026241183280945,0.8397886902093887,e000442,1,e000441
0.31026241183280945,0.8397886902093887,e000443,1,e000442
0.31026241183280945,0.8397886902093887,e000633,1,e000443
0.31026241183280945,0.8397886902093887,e000634,1,e000633
0.31026241183280945,0.8397886902093887,e000635,1,e000634
0.31026241183280945,0.8397886902093887,e000246,1,e000635
0.15787003934383392,0.8972986713051796,e000247,1,e000246
0.15787003934383392,0.8972986713051796,e000248,1,e000247
0.2192116528749466,0.0,e000051,1,e000248
0.2192116528749466,0.0,e000052,1,e000051
0.2192116528749466,0.0,e000053,1,e000052
0.3038305640220642,0.8432483971118927,e000445,1,e000444
0.3038305640220642,0.8432483971118927,e000446,1,e000445
0.3038305640220642,0.8432483971118927,e000636,1,e000446
0.3038305640220642,0.8432483971118927,e000637,1,e000636
0.3038305640220642,0.8432483971118927,e000638,1,e000637
0.3038305640220642,0.8432483971118927,e000249,1,e000638
0.16684557497501373,0.8975263014435768,e000250,1,e000249
0.16684557497501373,0.8975263014435768,e000251,1,e000250
0.27496448159217834,0.0,e000054,1,e000251
0.27496448159217834,0.0,e000055,1,e000054
0.27496448159217834,0.0,e000056,1,e000055
0.17916239798069,0.8933070525527,e000253,1,e000252
0.17916239798069,0.8933070525527,e000254,1,e000253
0.26175275444984436,0.8493548482656479,e000447,1,e000254
0.26175275444984436,0.8493548482656479,e000448,1,e000447
0.26175275444984436,0.8493548482656479,e000449,1,e000448
0.26175275444984436,0.8493548482656479,e000639,1,e000449
0.26175275444984436,0.8493548482656479,e000640,1,e000639
0.26175275444984436,0.8493548482656479,e000641,1,e000640
0.3712184727191925,0.0,e000057,1,e000641
0.3712184727191925,0.0,e000058,1,e000057
0.3712184727191925,0.0,e000059,1,e000058
0.19102749228477478,0.8884937316179276,e000256,1,e000255
0.19102749228477478,0.8884937316179276,e000257,1,e000256
0.31873130798339844,0.836370974779129,e000450,1,e000257
0.31873130798339844,0.836370974779129,e000451,1,e000450
0.31873130798339844,0.836370974779129,e000452,1,e000451
0.31873130798339844,0.836370974779129,e000642,1,e000452
0.31873130798339844,0.836370974779129,e000643,1,e000642
0.31873130798339844,0.836370974779129,e000644,1,e000643
0.47657009959220886,0.0,e000060,1,e000644
0.47657009959220886,0.0,e000061,1,e000060
0.47657009959220886,0.0,e000062,1,e000061
0.20055650174617767,0.8911283984780312,e000259,1,e000258
0.20055650174617767,0.8911283984780312,e000260,1,e000259
0.26460570096969604,0.8498802781105042,e000453,1,e000260
0.26460570096969604,0.8498802781105042,e000454,1,e000453
0.26460570096969604,0.8498802781105042,e000455,1,e000454
0.26460570096969604,0.8498802781105042,e000645,1,e000455
0.26460570096969604,0.8498802781105042,e000646,1,e000645
0.26460570096969604,0.8498802781105042,e000647,1,e000646
0.4819108247756958,0.0,e000063,1,e000647
0.4819108247756958,0.0,e000064,1,e000063
0.4819108247756958,0.0,e000065,1,e000064
0.27866828441619873,0.844260573387146,e000457,1,e000456
0.27866828441619873,0.844260573387146,e000458,1,e000457
0.27866828441619873,0.844260573387146,e000648,1,e000458
0.27866828441619873,0.844260573387146,e000649,1,e000648
0.27866828441619873,0.844260573387146,e000650,1,e000649
0.27866828441619873,0.5354754477739334,e000261,1,e000650
0.21234199404716492,0.5354754477739334,e000262,1,e000261
0.21234199404716492,0.5354754477739334,e000263,1,e000262
0.45237573981285095,0.0,e000066,1,e000263
0.45237573981285095,0.0,e000067,1,e000066
0.45237573981285095,0.0,e000068,1,e000067
0.2620696425437927,0.8530295789241791,e000460,1,e000459
0.2620696425437927,0.8530295789241791,e000461,1,e000460
0.2620696425437927,0.8530295789241791,e000651,1,e000461
0.2620696425437927,0.8530295789241791,e000652,1,e000651
0.2620696425437927,0.8530295789241791,e000653,1,e000652
0.2620696425437927,0.7898550927639008,e000264,1,e000653
0.2308008372783661,0.7898550927639008,e000265,1,e000264
0.2308008372783661,0.7898550927639008,e000266,1,e000265
0.4523608088493347,0.0,e000069,1,e000266
0.4523608088493347,0.0,e000070,1,e000069
0.4523608088493347,0.0,e000071,1,e000070
0.2265763282775879,0.8198597878217697,e000268,1,e000267
0.2265763282775879,0.8198597878217697,e000269,1,e000268
0.25352969765663147,0.8198597878217697,e000462,1,e000269
0.25352969765663147,0.8580177128314972,e000463,1,e000462
0.25352969765663147,0.8580177128314972,e000464,1,e000463
0.25352969765663147,0.8580177128314972,e000654,1,e000464
0.25352969765663147,0.8580177128314972,e000655,1,e000654
0.25352969765663147,0.8580177128314972,e000656,1,e000655
0.44800686836242676,0.0,e000072,1,e000656
0.44800686836242676,0.0,e000073,1,e000072
0.44800686836242676,0.0,e000074,1,e000073
0.23615188896656036,0.805137924849987,e000271,1,e000270
0.23615188896656036,0.805137924849987,e000272,1,e000271
0.24228543043136597,0.805137924849987,e000465,1,e000272
0.24228543043136597,0.8643124103546143,e000466,1,e000465
0.24228543043136597,0.8643124103546143,e000467,1,e000466
0.24228543043136597,0.8643124103546143,e000657,1,e000467
0.24228543043136597,0.8643124103546143,e000658,1,e000657
0.24228543043136597,0.8643124103546143,e000659,1,e000658
0.4265414774417877,0.0,e000075,1,e000659
0.4265414774417877,0.0,e000076,1,e000075
0.4265414774417877,0.0,e000077,1,e000076
0.24457453191280365,0.8635520115494728,e000469,1,e000468
0.24457453191280365,0.8635520115494728,e000470,1,e000469
0.24457453191280365,0.8635520115494728,e000660,1,e000470
0.24457453191280365,0.8635520115494728,e000661,1,e000660
0.24457453191280365,0.8635520115494728,e000662,1,e000661
0.24457453191280365,0.3490152209997177,e000273,1,e000662
0.2415829598903656,0.3490152209997177,e000274,1,e000273
0.2415829598903656,0.3490152209997177,e000275,1,e000274
0.48302531242370605,0.0,e000078,1,e000275
0.48302531242370605,0.0,e000079,1,e000078
0.48302531242370605,0.0,e000080,1,e000079
0.25921982526779175,0.8578488230705261,e000472,1,e000471
0.25921982526779175,0.8578488230705261,e000473,1,e000472
0.25921982526779175,0.8578488230705261,e000663,1,e000473
0.25921982526779175,0.8578488230705261,e000664,1,e000663
0.25921982526779175,0.8578488230705261,e000665,1,e000664
0.25921982526779175,0.21813663840293884,e000276,1,e000665
0.22381635010242462,0.21813663840293884,e000277,1,e000276
0.22381635010242462,0.21813663840293884,e000278,1,e000277
0.41082891821861267,0.0,e000081,1,e000278
0.41082891821861267,0.0,e000082,1,e000081
0.41082891821861267,0.0,e000083,1,e000082
0.2514866888523102,0.8659476190805435,e000475,1,e000474
0.2514866888523102,0.8659476190805435,e000476,1,e000475
0.2514866888523102,0.8659476190805435,e000666,1,e000476
0.2514866888523102,0.8659476190805435,e000667,1,e000666
0.2514866888523102,0.8659476190805435,e000668,1,e000667
0.2514866888523102,0.731089249253273,e000279,1,e000668
0.24371519684791565,0.731089249253273,e000280,1,e000279
0.24371519684791565,0.731089249253273,e000281,1,e000280
0.4497012197971344,0.0,e000084,1,e000281
0.4497012197971344,0.0,e000085,1,e000084
0.4497012197971344,0.0,e000086,1,e000085
0.24491268396377563,0.8707269728183746,e000478,1,e000477
0.24491268396377563,0.8707269728183746,e000479,1,e000478
0.24491268396377563,0.8707269728183746,e000669,1,e000479
0.24491268396377563,0.8707269728183746,e000670,1,e000669
0.24491268396377563,0.8707269728183746,e000671,1,e000670
0.24926702678203583,0.7893268093466759,e000282,1,e000671
0.24926702678203583,0.7893268093466759,e000283,1,e000282
0.24926702678203583,0.7893268093466759,e000284,1,e000283
0.4599759876728058,0.0,e000087,1,e000284
0.4599759876728058,0.0,e000088,1,e000087
0.4599759876728058,0.0,e000089,1,e000088
0.23638679087162018,0.8758225962519646,e000481,1,e000480
0.23638679087162018,0.8758225962519646,e000482,1,e000481
0.23638679087162018,0.8758225962519646,e000672,1,e000482
0.23638679087162018,0.8758225962519646,e000673,1,e000672
0.23638679087162018,0.8758225962519646,e000674,1,e000673
0.2514808177947998,0.7861227989196777,e000285,1,e000674
0.2514808177947998,0.7861227989196777,e000286,1,e000285
0.2514808177947998,0.7861227989196777,e000287,1,e000286
0.43606215715408325,0.0,e000090,1,e000287
0.43606215715408325,0.0,e000091,1,e000090
0.43606215715408325,0.0,e000092,1,e000091
0.26762479543685913,0.8605948239564896,e000484,1,e000483
0.26762479543685913,0.8605948239564896,e000485,1,e000484
0.26762479543685913,0.8605948239564896,e000675,1,e000485
0.26762479543685913,0.8605948239564896,e000676,1,e000675
0.26762479543685913,0.8605948239564896,e000677,1,e000676
0.26762479543685913,0.7972036302089691,e000288,1,e000677
0.2480187714099884,0.7972036302089691,e000289,1,e000288
0.2480187714099884,0.7972036302089691,e000290,1,e000289
0.32001110911369324,0.0,e000093,1,e000290
0.32001110911369324,0.0,e000094,1,e000093
0.32001110911369324,0.0,e000095,1,e000094
0.24898909032344818,0.8708334192633629,e000487,1,e000486
0.24898909032344818,0.8708334192633629,e000488,1,e000487
0.24898909032344818,0.8708334192633629,e000678,1,e000488
0.24898909032344818,0.8708334192633629,e000679,1,e000678
0.24898909032344818,0.8708334192633629,e000680,1,e000679
0.24898909032344818,0.8159119710326195,e000291,1,e000680
0.24777795374393463,0.8159119710326195,e000292,1,e000291
0.24777795374393463,0.8159119710326195,e000293,1,e000292
0.374586820602417,0.0,e000096,1,e000293
0.374586820602417,0.0,e000097,1,e000096
0.374586820602417,0.0,e000098,1,e000097
0.25467824935913086,0.8687062561511993,e000490,1,e000489
0.25467824935913086,0.8687062561511993,e000491,1,e000490
0.25467824935913086,0.8687062561511993,e000681,1,e000491
0.25467824935913086,0.8687062561511993,e000682,1,e000681
0.25467824935913086,0.8687062561511993,e000683,1,e000682
0.25467824935913086,0.8137022852897644,e000294,1,e000683
0.2441478669643402,0.8137022852897644,e000295,1,e000294
0.2441478669643402,0.8137022852897644,e000296,1,e000295
0.2638688385486603,0.0,e000099,1,e000296
0.2638688385486603,0.0,e000100,1,e000099
0.2638688385486603,0.0,e000101,1,e000100
0.24139128625392914,0.8753354325890541,e000493,1,e000492
0.24139128625392914,0.8753354325890541,e000494,1,e000493
0.24139128625392914,0.8753354325890541,e000684,1,e000494
0.24139128625392914,0.8753354325890541,e000685,1,e000684
0.24139128625392914,0.8753354325890541,e000686,1,e000685
0.2617466449737549,0.817437082529068,e000297,1,e000686
0.2617466449737549,0.817437082529068,e000298,1,e000297
0.2617466449737549,0.817437082529068,e000299,1,e000298
0.32871803641319275,0.0,e000102,1,e000299
0.32871803641319275,0.0,e000103,1,e000102
0.32871803641319275,0.0,e000104,1,e000103
0.24196979403495789,0.8757790923118591,e000496,1,e000495
0.24196979403495789,0.8757790923118591,e000497,1,e000496
0.24196979403495789,0.8757790923118591,e000687,1,e000497
0.24196979403495789,0.8757790923118591,e000688,1,e000687
0.24196979403495789,0.8757790923118591,e000689,1,e000688
0.25963833928108215,0.43681877851486206,e000300,1,e000689
0.25963833928108215,0.43681877851486206,e000301,1,e000300
0.25963833928108215,0.43681877851486206,e000302,1,e000301
0.40745773911476135,0.0,e000105,1,e000302
0.40745773911476135,0.0,e000106,1,e000105
0.40745773911476135,0.0,e000107,1,e000106
0.2520667612552643,0.8710898756980896,e000499,1,e000498
0.2520667612552643,0.8710898756980896,e000500,1,e000499
0.2520667612552643,0.8710898756980896,e000690,1,e000500
0.2520667612552643,0.8710898756980896,e000691,1,e000690
0.2520667612552643,0.8710898756980896,e000692,1,e000691
0.2520667612552643,0.725991003215313,e000303,1,e000692
0.242898091673851,0.725991003215313,e000304,1,e000303
0.242898091673851,0.725991003215313,e000305,1,e000304
0.31960755586624146,0.0,e000108,1,e000305
0.31960755586624146,0.0,e000109,1,e000108
0.31960755586624146,0.0,e000110,1,e000109
0.25315186381340027,0.8714294731616974,e000502,1,e000501
0.25315186381340027,0.8714294731616974,e000503,1,e000502
0.25315186381340027,0.8714294731616974,e000693,1,e000503
0.25315186381340027,0.8714294731616974,e000694,1,e000693
0.25315186381340027,0.8714294731616974,e000695,1,e000694
0.25315186381340027,0.34378888458013535,e000306,1,e000695
0.2239713817834854,0.34378888458013535,e000307,1,e000306
0.2239713817834854,0.34378888458013535,e000308,1,e000307
0.38391876220703125,0.0,e000111,1,e000308
0.38391876220703125,0.0,e000112,1,e000111
0.38391876220703125,0.0,e000113,1,e000112
0.24886730313301086,0.8740035146474838,e000505,1,e000504
0.24886730313301086,0.8740035146474838,e000506,1,e000505
0.24886730313301086,0.8740035146474838,e000696,1,e000506
0.24886730313301086,0.8740035146474838,e000697,1,e000696
0.24886730313301086,0.8740035146474838,e000698,1,e000697
0.24886730313301086,0.6969108879566193,e000309,1,e000698
0.22992375493049622,0.6969108879566193,e000310,1,e000309
0.22992375493049622,0.6969108879566193,e000311,1,e000310
0.2971035838127136,0.0,e000114,1,e000311
0.2971035838127136,0.0,e000115,1,e000114
0.2971035838127136,0.0,e000116,1,e000115
0.2637823224067688,0.8663560897111893,e000508,1,e000507
0.2637823224067688,0.8663560897111893,e000509,1,e000508
0.2637823224067688,0.8663560897111893,e000699,1,e000509
0.2637823224067688,0.8663560897111893,e000700,1,e000699
0.2637823224067688,0.8663560897111893,e000701,1,e000700
0.2637823224067688,0.7601853609085083,e000312,1,e000701
0.2365245819091797,0.7601853609085083,e000313,1,e000312
0.2365245819091797,0.7601853609085083,e000314,1,e000313
0.3056618869304657,0.0,e000117,1,e000314
0.3056618869304657,0.0,e000118,1,e000117
0.3056618869304657,0.0,e000119,1,e000118
0.2612392008304596,0.8681289255619049,e000511,1,e000510
0.2612392008304596,0.8681289255619049,e000512,1,e000511
0.2612392008304596,0.8681289255619049,e000702,1,e000512
0.2612392008304596,0.8681289255619049,e000703,1,e000702
0.2612392008304596,0.8681289255619049,e000704,1,e000703
0.2612392008304596,0.7911044582724571,e000315,1,e000704
0.22914685308933258,0.7911044582724571,e000316,1,e000315
0.22914685308933258,0.7911044582724571,e000317,1,e000316
0.327359676361084,0.0,e000120,1,e000317
0.327359676361084,0.0,e000121,1,e000120
0.327359676361084,0.0,e000122,1,e000121
0.23940648138523102,0.8161907717585564,e000319,1,e000318
0.23940648138523102,0.8161907717585564,e000320,1,e000319
0.23940648138523102,0.8161907717585564,e000513,1,e000320
0.21692806482315063,0.8697816133499146,e000514,1,e000513
0.21692806482315063,0.8697816133499146,e000515,1,e000514
0.21692806482315063,0.8697816133499146,e000705,1,e000515
0.21692806482315063,0.8697816133499146,e000706,1,e000705
0.21692806482315063,0.8697816133499146,e000707,1,e000706
0.37521281838417053,0.0,e000123,1,e000707
0.37521281838417053,0.0,e000124,1,e000123
0.37521281838417053,0.0,e000125,1,e000124
0.24429036676883698,0.8145589306950569,e000322,1,e000321
0.24429036676883698,0.8145589306950569,e000323,1,e000322
0.24429036676883698,0.8145589306950569,e000516,1,e000323
0.23809562623500824,0.8618626073002815,e000517,1,e000516
0.23809562623500824,0.8618626073002815,e000518,1,e000517
0.23809562623500824,0.8618626073002815,e000708,1,e000518
0.23809562623500824,0.8618626073002815,e000709,1,e000708
0.23809562623500824,0.8618626073002815,e000710,1,e000709
0.32880157232284546,0.0,e000126,1,e000710
0.32880157232284546,0.0,e000127,1,e000126
0.32880157232284546,0.0,e000128,1,e000127
0.2291412502527237,0.8645127639174461,e000520,1,e000519
0.2291412502527237,0.8645127639174461,e000521,1,e000520
0.2291412502527237,0.8645127639174461,e000711,1,e000521
0.2291412502527237,0.8645127639174461,e000712,1,e000711
0.2291412502527237,0.8645127639174461,e000713,1,e000712
0.2514697015285492,0.18837109208106995,e000324,1,e000713
0.2514697015285492,0.18837109208106995,e000325,1,e000324
0.2514697015285492,0.18837109208106995,e000326,1,e000325
0.2514697015285492,0.0,e000129,1,e000326
0.24215176701545715,0.0,e000130,1,e000129
0.24215176701545715,0.0,e000131,1,e000130
0.25626808404922485,0.8508375138044357,e000523,1,e000522
0.25626808404922485,0.8508375138044357,e000524,1,e000523
0.25626808404922485,0.8508375138044357,e000714,1,e000524
0.25626808404922485,0.8508375138044357,e000715,1,e000714
0.25626808404922485,0.8508375138044357,e000716,1,e000715
0.2623696029186249,0.7028458416461945,e000327,1,e000716
0.2623696029186249,0.7028458416461945,e000328,1,e000327
0.2623696029186249,0.7028458416461945,e000329,1,e000328
0.3437660038471222,0.0,e000132,1,e000329
0.3437660038471222,0.0,e000133,1,e000132
0.3437660038471222,0.0,e000134,1,e000133
0.2552504539489746,0.8582933992147446,e000526,1,e000525
0.2552504539489746,0.8582933992147446,e000527,1,e000526
0.2552504539489746,0.8582933992147446,e000717,1,e000527
0.2552504539489746,0.8582933992147446,e000718,1,e000717
0.2552504539489746,0.8582933992147446,e000719,1,e000718
0.27642127871513367,0.7222543656826019,e000330,1,e000719
0.27642127871513367,0.7222543656826019,e000331,1,e000330
0.27642127871513367,0.7222543656826019,e000332,1,e000331
0.27642127871513367,0.0,e000135,1,e000332
0.26518863439559937,0.0,e000136,1,e000135
0.26518863439559937,0.0,e000137,1,e000136
0.2598623037338257,0.860153317451477,e000529,1,e000528
0.2598623037338257,0.860153317451477,e000530,1,e000529
0.2598623037338257,0.860153317451477,e000720,1,e000530
0.2598623037338257,0.860153317451477,e000721,1,e000720
0.2598623037338257,0.860153317451477,e000722,1,e000721
0.28641846776008606,0.23004424571990967,e000333,1,e000722
0.28641846776008606,0.23004424571990967,e000334,1,e000333
0.28641846776008606,0.23004424571990967,e000335,1,e000334
0.4130317270755768,0.0,e000138,1,e000335
0.4130317270755768,0.0,e000139,1,e000138
0.4130317270755768,0.0,e000140,1,e000139
0.24219843745231628,0.8705888390541077,e000532,1,e000531
0.24219843745231628,0.8705888390541077,e000533,1,e000532
0.24219843745231628,0.8705888390541077,e000723,1,e000533
0.24219843745231628,0.8705888390541077,e000724,1,e000723
0.24219843745231628,0.8705888390541077,e000725,1,e000724
0.3034074902534485,0.6918278783559799,e000336,1,e000725
0.3034074902534485,0.6918278783559799,e000337,1,e000336
0.3034074902534485,0.6918278783559799,e000338,1,e000337
0.4730480909347534,0.0,e000141,1,e000338
0.4730480909347534,0.0,e000142,1,e000141
0.4730480909347534,0.0,e000143,1,e000142
0.25458550453186035,0.8647799044847488,e000535,1,e000534
0.25458550453186035,0.8647799044847488,e000536,1,e000535
0.25458550453186035,0.8647799044847488,e000726,1,e000536
0.25458550453186035,0.8647799044847488,e000727,1,e000726
0.25458550453186035,0.8647799044847488,e000728,1,e000727
0.3032047748565674,0.6883641332387924,e000339,1,e000728
0.3032047748565674,0.6883641332387924,e000340,1,e000339
0.3032047748565674,0.6883641332387924,e000341,1,e000340
0.43548518419265747,0.0,e000144,1,e000341
0.43548518419265747,0.0,e000145,1,e000144
0.43548518419265747,0.0,e000146,1,e000145
0.23086029291152954,0.8783277571201324,e000538,1,e000537
0.23086029291152954,0.8783277571201324,e000539,1,e000538
0.23086029291152954,0.8783277571201324,e000729,1,e000539
0.23086029291152954,0.8783277571201324,e000730,1,e000729
0.23086029291152954,0.8783277571201324,e000731,1,e000730
0.2944636642932892,0.7005557864904404,e000342,1,e000731
0.2944636642932892,0.7005557864904404,e000343,1,e000342
0.2944636642932892,0.7005557864904404,e000344,1,e000343
0.3583562672138214,0.0,e000147,1,e000344
0.3583562672138214,0.0,e000148,1,e000147
0.3583562672138214,0.0,e000149,1,e000148
0.23654954135417938,0.876157708466053,e000541,1,e000540
0.23654954135417938,0.876157708466053,e000542,1,e000541
0.23654954135417938,0.876157708466053,e000732,1,e000542
0.23654954135417938,0.876157708466053,e000733,1,e000732
0.23654954135417938,0.876157708466053,e000734,1,e000733
0.3602076470851898,0.15767992287874222,e000345,1,e000734
0.3602076470851898,0.15767992287874222,e000346,1,e000345
0.3602076470851898,0.15767992287874222,e000347,1,e000346
0.4017660617828369,0.0,e000150,1,e000347
0.4017660617828369,0.0,e000151,1,e000150
0.4017660617828369,0.0,e000152,1,e000151
0.2557966709136963,0.8666775673627853,e000544,1,e000543
0.2557966709136963,0.8666775673627853,e000545,1,e000544
0.2557966709136963,0.8666775673627853,e000735,1,e000545
0.2557966709136963,0.8666775673627853,e000736,1,e000735
0.2557966709136963,0.8666775673627853,e000737,1,e000736
0.37331974506378174,0.6455709338188171,e000348,1,e000737
0.37331974506378174,0.6455709338188171,e000349,1,e000348
0.37331974506378174,0.6455709338188171,e000350,1,e000349
0.37331974506378174,0.0,e000153,1,e000350
0.3688257038593292,0.0,e000154,1,e000153
0.3688257038593292,0.0,e000155,1,e000154
0.3561541438102722,0.7016185522079468,e000352,1,e000351
0.3561541438102722,0.7016185522079468,e000353,1,e000352
0.3561541438102722,0.7016185522079468,e000546,1,e000353
0.22903789579868317,0.8677088841795921,e000547,1,e000546
0.22903789579868317,0.8677088841795921,e000548,1,e000547
0.22903789579868317,0.8677088841795921,e000738,1,e000548
0.22903789579868317,0.8677088841795921,e000739,1,e000738
0.22903789579868317,0.8677088841795921,e000740,1,e000739
0.40784406661987305,0.0,e000156,1,e000740
0.40784406661987305,0.0,e000157,1,e000156
0.40784406661987305,0.0,e000158,1,e000157
0.34715548157691956,0.7335158288478851,e000355,1,e000354
0.34715548157691956,0.7335158288478851,e000356,1,e000355
0.34715548157691956,0.7335158288478851,e000549,1,e000356
0.23102658987045288,0.872152715921402,e000550,1,e000549
0.23102658987045288,0.872152715921402,e000551,1,e000550
0.23102658987045288,0.872152715921402,e000741,1,e000551
0.23102658987045288,0.872152715921402,e000742,1,e000741
0.23102658987045288,0.872152715921402,e000743,1,e000742
0.49220508337020874,0.0,e000159,1,e000743
0.49220508337020874,0.0,e000160,1,e000159
0.49220508337020874,0.0,e000161,1,e000160
0.34183791279792786,0.7472279965877533,e000358,1,e000357
0.34183791279792786,0.7472279965877533,e000359,1,e000358
0.34183791279792786,0.7472279965877533,e000552,1,e000359
0.22950832545757294,0.8748077228665352,e000553,1,e000552
0.22950832545757294,0.8748077228665352,e000554,1,e000553
0.22950832545757294,0.8748077228665352,e000744,1,e000554
0.22950832545757294,0.8748077228665352,e000745,1,e000744
0.22950832545757294,0.8748077228665352,e000746,1,e000745
0.46285367012023926,0.0,e000162,1,e000746
0.46285367012023926,0.0,e000163,1,e000162
0.46285367012023926,0.0,e000164,1,e000163
0.3550458252429962,0.7354797869920731,e000361,1,e000360
0.3550458252429962,0.7354797869920731,e000362,1,e000361
0.3550458252429962,0.7354797869920731,e000555,1,e000362
0.2567659616470337,0.8624145090579987,e000556,1,e000555
0.2567659616470337,0.8624145090579987,e000557,1,e000556
0.2567659616470337,0.8624145090579987,e000747,1,e000557
0.2567659616470337,0.8624145090579987,e000748,1,e000747
0.2567659616470337,0.8624145090579987,e000749,1,e000748
0.5516916513442993,0.0,e000165,1,e000749
0.5516916513442993,0.0,e000166,1,e000165
0.5516916513442993,0.0,e000167,1,e000166
0.353671133518219,0.7334884256124496,e000364,1,e000363
0.353671133518219,0.7334884256124496,e000365,1,e000364
0.353671133518219,0.7334884256124496,e000558,1,e000365
0.2522864043712616,0.8653105348348618,e000559,1,e000558
0.2522864043712616,0.8653105348348618,e000560,1,e000559
0.2522864043712616,0.8653105348348618,e000750,1,e000560
0.2522864043712616,0.8653105348348618,e000751,1,e000750
0.2522864043712616,0.8653105348348618,e000752,1,e000751
0.48939865827560425,0.0,e000168,1,e000752
0.48939865827560425,0.0,e000169,1,e000168
0.48939865827560425,0.0,e000170,1,e000169
0.3449263870716095,0.7457894086837769,e000367,1,e000366
0.3449263870716095,0.7457894086837769,e000368,1,e000367
0.3449263870716095,0.7457894086837769,e000561,1,e000368
0.2673640251159668,0.8578866124153137,e000562,1,e000561
0.2673640251159668,0.8578866124153137,e000563,1,e000562
0.2673640251159668,0.8578866124153137,e000753,1,e000563
0.2673640251159668,0.8578866124153137,e000754,1,e000753
0.2673640251159668,0.8578866124153137,e000755,1,e000754
0.5660123229026794,0.0,e000171,1,e000755
0.5660123229026794,0.0,e000172,1,e000171
0.5660123229026794,0.0,e000173,1,e000172
0.34724995493888855,0.746641144156456,e000370,1,e000369
0.34724995493888855,0.746641144156456,e000371,1,e000370
0.34724995493888855,0.746641144156456,e000564,1,e000371
0.26240694522857666,0.8615904003381729,e000565,1,e000564
0.26240694522857666,0.8615904003381729,e000566,1,e000565
0.26240694522857666,0.8615904003381729,e000756,1,e000566
0.26240694522857666,0.8615904003381729,e000757,1,e000756
0.26240694522857666,0.8615904003381729,e000758,1,e000757
0.4716879427433014,0.0,e000174,1,e000758
0.4716879427433014,0.0,e000175,1,e000174
0.4716879427433014,0.0,e000176,1,e000175
0.26578718423843384,0.8602239340543747,e000568,1,e000567
0.26578718423843384,0.8602239340543747,e000569,1,e000568
0.26578718423843384,0.8602239340543747,e000759,1,e000569
0.26578718423843384,0.8602239340543747,e000760,1,e000759
0.26578718423843384,0.8602239340543747,e000761,1,e000760
0.41528749465942383,0.1327376514673233,e000372,1,e000761
0.41528749465942383,0.1327376514673233,e000373,1,e000372
0.41528749465942383,0.1327376514673233,e000374,1,e000373
0.5747043490409851,0.0,e000177,1,e000374
0.5747043490409851,0.0,e000178,1,e000177
0.5747043490409851,0.0,e000179,1,e000178
0.23059168457984924,0.8785396963357925,e000571,1,e000570
0.23059168457984924,0.8785396963357925,e000572,1,e000571
0.23059168457984924,0.8785396963357925,e000762,1,e000572
0.23059168457984924,0.8785396963357925,e000763,1,e000762
0.23059168457984924,0.8785396963357925,e000764,1,e000763
0.36836084723472595,0.5229625105857849,e000375,1,e000764
0.36836084723472595,0.5229625105857849,e000376,1,e000375
0.36836084723472595,0.5229625105857849,e000377,1,e000376
0.5180213451385498,0.0,e000180,1,e000377
0.5180213451385498,0.0,e000181,1,e000180
0.5180213451385498,0.0,e000182,1,e000181
0.23618848621845245,0.8764830008149147,e000574,1,e000573
0.23618848621845245,0.8764830008149147,e000575,1,e000574
0.23618848621845245,0.8764830008149147,e000765,1,e000575
0.23618848621845245,0.8764830008149147,e000766,1,e000765
0.23618848621845245,0.8764830008149147,e000767,1,e000766
0.3806397020816803,0.5211438983678818,e000378,1,e000767
0.3806397020816803,0.5211438983678818,e000379,1,e000378
0.3806397020816803,0.5211438983678818,e000380,1,e000379
0.5906339883804321,0.0,e000183,1,e000380
0.5906339883804321,0.0,e000184,1,e000183
0.5906339883804321,0.0,e000185,1,e000184
0.24013584852218628,0.8740479052066803,e000577,1,e000576
0.24013584852218628,0.8740479052066803,e000578,1,e000577
0.24013584852218628,0.8740479052066803,e000768,1,e000578
0.24013584852218628,0.8740479052066803,e000769,1,e000768
0.24013584852218628,0.8740479052066803,e000770,1,e000769
0.37405264377593994,0.5246982723474503,e000381,1,e000770
0.37405264377593994,0.5246982723474503,e000382,1,e000381
0.37405264377593994,0.5246982723474503,e000383,1,e000382
0.37405264377593994,0.5246982723474503,e000384,1,e000383
0.37405264377593994,0.5246982723474503,e000385,1,e000384
0.37405264377593994,0.5246982723474503,e000386,1,e000385
0.5427143573760986,0.0,e000186,1,e000386
0.5427143573760986,0.0,e000187,1,e000186
0.5427143573760986,0.0,e000188,1,e000187
0.22395983338356018,0.8775359243154526,e000580,1,e000579
0.22395983338356018,0.8775359243154526,e000581,1,e000580
0.22395983338356018,0.8775359243154526,e000771,1,e000581
0.22395983338356018,0.8775359243154526,e000772,1,e000771
0.22395983338356018,0.8775359243154526,e000773,1,e000772
0.3634146749973297,0.5188457816839218,e000387,1,e000773
0.3634146749973297,0.5188457816839218,e000388,1,e000387
0.3634146749973297,0.5188457816839218,e000389,1,e000388
0.5776041150093079,0.0,e000189,1,e000389
0.5776041150093079,0.0,e000190,1,e000189
0.5776041150093079,0.0,e000191,1,e000190
0.6734925508499146,0.0,e000775,1,e000774
0.6734925508499146,0.0,e000776,1,e000775
0.6734925508499146,0.0,e000966,1,e000776
0.6734925508499146,0.0,e000967,1,e000966
0.6734925508499146,0.0,e000968,1,e000967
0.6734925508499146,0.0,e001158,1,e000968
0.6734925508499146,0.0,e001159,1,e001158
0.6734925508499146,0.0,e001160,1,e001159
0.6734925508499146,0.0,e001350,1,e001160
0.6734925508499146,0.0,e001351,1,e001350
0.6734925508499146,0.0,e001352,1,e001351
0.4163604974746704,0.0,e000778,1,e000777
0.4163604974746704,0.0,e000779,1,e000778
0.4163604974746704,0.0,e000969,1,e000779
0.4163604974746704,0.0,e000970,1,e000969
0.4163604974746704,0.0,e000971,1,e000970
0.4163604974746704,0.0,e001161,1,e000971
0.4163604974746704,0.0,e001162,1,e001161
0.4163604974746704,0.0,e001163,1,e001162
0.4163604974746704,0.0,e001353,1,e001163
0.4163604974746704,0.0,e001354,1,e001353
0.4163604974746704,0.0,e001355,1,e001354
0.8278048038482666,0.0,e000781,1,e000780
0.8278048038482666,0.0,e000782,1,e000781
0.8332672715187073,0.0,e000972,1,e000782
0.8332672715187073,0.0,e000973,1,e000972
0.8332672715187073,0.0,e000974,1,e000973
0.8332672715187073,0.0,e001164,1,e000974
0.8332672715187073,0.0,e001165,1,e001164
0.8332672715187073,0.0,e001166,1,e001165
0.8332672715187073,0.0,e001356,1,e001166
0.8332672715187073,0.0,e001357,1,e001356
0.8332672715187073,0.0,e001358,1,e001357
0.4357547163963318,0.0,e000976,1,e000975
0.4357547163963318,0.0,e000977,1,e000976
0.4357547163963318,0.0,e001167,1,e000977
0.4357547163963318,0.0,e001168,1,e001167
0.4357547163963318,0.0,e001169,1,e001168
0.4357547163963318,0.0,e001359,1,e001169
0.4357547163963318,0.0,e001360,1,e001359
0.4357547163963318,0.0,e001361,1,e001360
0.7202666401863098,0.0,e000783,1,e001361
0.7202666401863098,0.0,e000784,1,e000783
0.7202666401863098,0.0,e000785,1,e000784
0.7347108721733093,0.0,e000787,1,e000786
0.7347108721733093,0.0,e000788,1,e000787
0.7930277585983276,0.0,e000978,1,e000788
0.7930277585983276,0.0,e000979,1,e000978
0.7930277585983276,0.0,e000980,1,e000979
0.7930277585983276,0.0,e001170,1,e000980
0.7930277585983276,0.0,e001171,1,e001170
0.7930277585983276,0.0,e001172,1,e001171
0.7930277585983276,0.0,e001362,1,e001172
0.7930277585983276,0.0,e001363,1,e001362
0.7930277585983276,0.0,e001364,1,e001363
0.7220271229743958,0.0,e000982,1,e000981
0.7220271229743958,0.0,e000983,1,e000982
0.7220271229743958,0.0,e001173,1,e000983
0.7220271229743958,0.0,e001174,1,e001173
0.7220271229743958,0.0,e001175,1,e001174
0.7220271229743958,0.0,e001365,1,e001175
0.7220271229743958,0.0,e001366,1,e001365
0.7220271229743958,0.0,e001367,1,e001366
0.7220271229743958,0.0,e000789,1,e001367
0.3017611801624298,0.39521923661231995,e000790,1,e000789
0.3017611801624298,0.39521923661231995,e000791,1,e000790
0.9100496172904968,0.0,e000985,1,e000984
0.9100496172904968,0.0,e000986,1,e000985
0.9100496172904968,0.0,e001176,1,e000986
0.9100496172904968,0.0,e001177,1,e001176
0.9100496172904968,0.0,e001178,1,e001177
0.9100496172904968,0.0,e001368,1,e001178
0.9100496172904968,0.0,e001369,1,e001368
0.9100496172904968,0.0,e001370,1,e001369
0.9100496172904968,0.0,e000792,1,e001370
0.26587653160095215,0.5174666345119476,e000793,1,e000792
0.26587653160095215,0.5174666345119476,e000794,1,e000793
0.9462103247642517,0.0,e000988,1,e000987
0.9462103247642517,0.0,e000989,1,e000988
0.9462103247642517,0.0,e001179,1,e000989
0.9462103247642517,0.0,e001180,1,e001179
0.9462103247642517,0.0,e001181,1,e001180
0.9462103247642517,0.0,e001371,1,e001181
0.9462103247642517,0.0,e001372,1,e001371
0.9462103247642517,0.0,e001373,1,e001372
0.9462103247642517,0.0,e000795,1,e001373
0.05831204354763031,0.710024781525135,e000796,1,e000795
0.05831204354763031,0.710024781525135,e000797,1,e000796
0.5263487696647644,0.26174604892730713,e000991,1,e000990
0.5263487696647644,0.26174604892730713,e000992,1,e000991
0.5263487696647644,0.26174604892730713,e001182,1,e000992
0.5263487696647644,0.26174604892730713,e001183,1,e001182
0.5263487696647644,0.26174604892730713,e001184,1,e001183
0.5263487696647644,0.26174604892730713,e001374,1,e001184
0.5263487696647644,0.26174604892730713,e001375,1,e001374
0.5263487696647644,0.26174604892730713,e001376,1,e001375
0.5263487696647644,0.26174604892730713,e000798,1,e001376
0.21961160004138947,0.2747585102915764,e000799,1,e000798
0.21961160004138947,0.2747585102915764,e000800,1,e000799
0.23557676374912262,0.3973757401108742,e000802,1,e000801
0.23557676374912262,0.3973757401108742,e000803,1,e000802
0.23557676374912262,0.3973757401108742,e000993,1,e000803
0.08613734692335129,0.5537266917526722,e000994,1,e000993
0.08613734692335129,0.5537266917526722,e000995,1,e000994
0.08613734692335129,0.5537266917526722,e001185,1,e000995
0.08613734692335129,0.5537266917526722,e001186,1,e001185
0.08613734692335129,0.5537266917526722,e001187,1,e001186
0.08613734692335129,0.5537266917526722,e001377,1,e001187
0.08613734692335129,0.5537266917526722,e001378,1,e001377
0.08613734692335129,0.5537266917526722,e001379,1,e001378
0.2835202217102051,0.06823765486478806,e000805,1,e000804
0.2835202217102051,0.06823765486478806,e000806,1,e000805
0.2835202217102051,0.06823765486478806,e000996,1,e000806
0.04151323810219765,0.3925818335264921,e000997,1,e000996
0.04151323810219765,0.3925818335264921,e000998,1,e000997
0.04151323810219765,0.3925818335264921,e001188,1,e000998
0.04151323810219765,0.3925818335264921,e001189,1,e001188
0.04151323810219765,0.3925818335264921,e001190,1,e001189
0.04151323810219765,0.3925818335264921,e001380,1,e001190
0.04151323810219765,0.3925818335264921,e001381,1,e001380
0.04151323810219765,0.3925818335264921,e001382,1,e001381
0.393479585647583,0.7827579230070114,e001000,1,e000999
0.393479585647583,0.7827579230070114,e001001,1,e001000
0.393479585647583,0.7827579230070114,e001191,1,e001001
0.393479585647583,0.7827579230070114,e001192,1,e001191
0.393479585647583,0.7827579230070114,e001193,1,e001192
0.393479585647583,0.7827579230070114,e001383,1,e001193
0.393479585647583,0.7827579230070114,e001384,1,e001383
0.393479585647583,0.7827579230070114,e001385,1,e001384
0.393479585647583,0.0,e000807,1,e001385
0.17330633103847504,0.0,e000808,1,e000807
0.17330633103847504,0.0,e000809,1,e000808
0.6101424098014832,0.48331665992736816,e000811,1,e000810
0.6101424098014832,0.48331665992736816,e000812,1,e000811
0.6101424098014832,0.35079534351825714,e001002,1,e000812
0.1810782253742218,0.35079534351825714,e001003,1,e001002
0.1810782253742218,0.35079534351825714,e001004,1,e001003
0.1810782253742218,0.35079534351825714,e001194,1,e001004
0.1810782253742218,0.35079534351825714,e001195,1,e001194
0.1810782253742218,0.35079534351825714,e001196,1,e001195
0.1810782253742218,0.35079534351825714,e001386,1,e001196
0.1810782253742218,0.35079534351825714,e001387,1,e001386
0.1810782253742218,0.35079534351825714,e001388,1,e001387
0.6820569634437561,0.6442553550004959,e001006,1,e001005
0.6820569634437561,0.6442553550004959,e001007,1,e001006
0.6820569634437561,0.6442553550004959,e001197,1,e001007
0.5433000326156616,0.7060590386390686,e001198,1,e001197
0.5433000326156616,0.7060590386390686,e001199,1,e001198
0.5433000326156616,0.7060590386390686,e001389,1,e001199
0.5433000326156616,0.7060590386390686,e001390,1,e001389
0.5433000326156616,0.7060590386390686,e001391,1,e001390
0.5433000326156616,0.0,e000813,1,e001391
0.4368109405040741,0.0,e000814,1,e000813
0.4368109405040741,0.0,e000815,1,e000814
0.7810973525047302,0.5980560332536697,e001009,1,e001008
0.7810973525047302,0.5980560332536697,e001010,1,e001009
0.7810973525047302,0.5980560332536697,e001200,1,e001010
0.7424890995025635,0.6175023913383484,e001201,1,e001200
0.7424890995025635,0.6175023913383484,e001202,1,e001201
0.7424890995025635,0.6175023913383484,e001392,1,e001202
0.7424890995025635,0.6175023913383484,e001393,1,e001392
0.7424890995025635,0.6175023913383484,e001394,1,e001393
0.7424890995025635,0.0,e000816,1,e001394
0.4788159430027008,0.0,e000817,1,e000816
0.4788159430027008,0.0,e000818,1,e000817
0.7776831984519958,0.6000331193208694,e001204,1,e001203
0.7776831984519958,0.6000331193208694,e001205,1,e001204
0.7776831984519958,0.6000331193208694,e001395,1,e001205
0.7776831984519958,0.6000331193208694,e001396,1,e001395
0.7776831984519958,0.6000331193208694,e001397,1,e001396
0.7872732281684875,0.5956502705812454,e001011,1,e001397
0.7872732281684875,0.5956502705812454,e001012,1,e001011
0.7872732281684875,0.5956502705812454,e001013,1,e001012
0.7872732281684875,0.12959040701389313,e000819,1,e001013
0.6285099387168884,0.12959040701389313,e000820,1,e000819
0.6285099387168884,0.12959040701389313,e000821,1,e000820
0.7847272753715515,0.597275584936142,e001207,1,e001206
0.7847272753715515,0.597275584936142,e001208,1,e001207
0.7847272753715515,0.597275584936142,e001398,1,e001208
0.7847272753715515,0.597275584936142,e001399,1,e001398
0.7847272753715515,0.597275584936142,e001400,1,e001399
0.8142680525779724,0.5803978741168976,e001014,1,e001400
0.8142680525779724,0.5803978741168976,e001015,1,e001014
0.8142680525779724,0.5803978741168976,e001016,1,e001015
0.8142680525779724,0.0,e000822,1,e001016
0.26592370867729187,0.0,e000823,1,e000822
0.26592370867729187,0.0,e000824,1,e000823
0.814004123210907,0.5811346769332886,e001210,1,e001209
0.814004123210907,0.5811346769332886,e001211,1,e001210
0.814004123210907,0.5811346769332886,e001401,1,e001211
0.814004123210907,0.5811346769332886,e001402,1,e001401
0.814004123210907,0.5811346769332886,e001403,1,e001402
0.814004123210907,0.07841870933771133,e000825,1,e001403
0.5818500518798828,0.07841870933771133,e000826,1,e000825
0.5818500518798828,0.07841870933771133,e000827,1,e000826
0.5818500518798828,0.07841870933771133,e001017,1,e000827
0.08940351009368896,0.9196619689464569,e001018,1,e001017
0.08940351009368896,0.9196619689464569,e001019,1,e001018
0.30950990319252014,0.0,e000829,1,e000828
0.30950990319252014,0.0,e000830,1,e000829
0.30950990319252014,0.0,e001212,1,e000830
0.0883963480591774,0.9203958474099636,e001213,1,e001212
0.0883963480591774,0.9203958474099636,e001214,1,e001213
0.0883963480591774,0.9203958474099636,e001404,1,e001214
0.0883963480591774,0.9203958474099636,e001405,1,e001404
0.0883963480591774,0.9203958474099636,e001406,1,e001405
0.20680132508277893,0.0,e001020,1,e001406
0.20680132508277893,0.0,e001021,1,e001020
0.20680132508277893,0.0,e001022,1,e001021
0.5420382618904114,0.0,e000832,1,e000831
0.5420382618904114,0.0,e000833,1,e000832
0.5420382618904114,0.0,e001023,1,e000833
0.05597599223256111,0.24029148928821087,e001024,1,e001023
0.05597599223256111,0.24029148928821087,e001025,1,e001024
0.21484364569187164,0.0,e001215,1,e001025
0.21484364569187164,0.0,e001216,1,e001215
0.21484364569187164,0.0,e001217,1,e001216
0.21484364569187164,0.0,e001407,1,e001217
0.21484364569187164,0.0,e001408,1,e001407
0.21484364569187164,0.0,e001409,1,e001408
0.1252371370792389,0.06095817685127258,e001027,1,e001026
0.1252371370792389,0.06095817685127258,e001028,1,e001027
0.1252371370792389,0.06095817685127258,e001218,1,e001028
0.05279887840151787,0.26266184635460377,e001219,1,e001218
0.05279887840151787,0.26266184635460377,e001220,1,e001219
0.05279887840151787,0.26266184635460377,e001410,1,e001220
0.05279887840151787,0.26266184635460377,e001411,1,e001410
0.05279887840151787,0.26266184635460377,e001412,1,e001411
0.09028034657239914,0.0,e000834,1,e001412
0.09028034657239914,0.0,e000835,1,e000834
0.09028034657239914,0.0,e000836,1,e000835
0.644360363483429,0.0,e000838,1,e000837
0.644360363483429,0.0,e000839,1,e000838
0.644360363483429,0.0,e001221,1,e000839
0.10387664288282394,0.03228997066617012,e001222,1,e001221
0.10387664288282394,0.03228997066617012,e001223,1,e001222
0.10387664288282394,0.03228997066617012,e001413,1,e001223
0.10387664288282394,0.03228997066617012,e001414,1,e001413
0.10387664288282394,0.03228997066617012,e001415,1,e001414
0.2669834792613983,0.0,e001029,1,e001415
0.2669834792613983,0.0,e001030,1,e001029
0.2669834792613983,0.0,e001031,1,e001030
0.13922001421451569,0.0,e000841,1,e000840
0.13922001421451569,0.0,e000842,1,e000841
0.21439528465270996,0.0,e001224,1,e000842
0.21439528465270996,0.0,e001225,1,e001224
0.21439528465270996,0.0,e001226,1,e001225
0.21439528465270996,0.0,e001416,1,e001226
0.21439528465270996,0.0,e001417,1,e001416
0.21439528465270996,0.0,e001418,1,e001417
0.21439528465270996,0.0,e001032,1,e001418
0.18928059935569763,0.0,e001033,1,e001032
0.18928059935569763,0.0,e001034,1,e001033
0.664476752281189,0.0,e000844,1,e000843
0.664476752281189,0.0,e000845,1,e000844
0.664476752281189,0.0,e001035,1,e000845
0.31357452273368835,0.0,e001036,1,e001035
0.31357452273368835,0.0,e001037,1,e001036
0.3321232497692108,0.0,e001227,1,e001037
0.3321232497692108,0.0,e001228,1,e001227
0.3321232497692108,0.0,e001229,1,e001228
0.3321232497692108,0.0,e001419,1,e001229
0.3321232497692108,0.0,e001420,1,e001419
0.3321232497692108,0.0,e001421,1,e001420
0.37102630734443665,0.0,e001231,1,e001230
0.37102630734443665,0.0,e001232,1,e001231
0.37102630734443665,0.0,e001422,1,e001232
0.37102630734443665,0.0,e001423,1,e001422
0.37102630734443665,0.0,e001424,1,e001423
0.37102630734443665,0.0,e001038,1,e001424
0.18270932137966156,0.0,e001039,1,e001038
0.18270932137966156,0.0,e001040,1,e001039
0.18270932137966156,0.0,e000846,1,e001040
0.1401442587375641,0.0,e000847,1,e000846
0.1401442587375641,0.0,e000848,1,e000847
0.6690422296524048,0.0,e001042,1,e001041
0.6690422296524048,0.0,e001043,1,e001042
0.6823570728302002,0.0,e001233,1,e001043
0.6823570728302002,0.0,e001234,1,e001233
0.6823570728302002,0.0,e001235,1,e001234
0.6823570728302002,0.0,e001425,1,e001235
0.6823570728302002,0.0,e001426,1,e001425
0.6823570728302002,0.0,e001427,1,e001426
0.6823570728302002,0.0,e000849,1,e001427
0.1972716748714447,0.0,e000850,1,e000849
0.1972716748714447,0.0,e000851,1,e000850
0.605689287185669,0.0,e001237,1,e001236
0.605689287185669,0.0,e001238,1,e001237
0.605689287185669,0.0,e001428,1,e001238
0.605689287185669,0.0,e001429,1,e001428
0.605689287185669,0.0,e001430,1,e001429
0.605689287185669,0.0,e000852,1,e001430
0.24515540897846222,0.0,e000853,1,e000852
0.24515540897846222,0.0,e000854,1,e000853
0.24515540897846222,0.0,e001044,1,e000854
0.09581844508647919,0.0,e001045,1,e001044
0.09581844508647919,0.0,e001046,1,e001045
0.7102363705635071,0.0,e001240,1,e001239
0.7102363705635071,0.0,e001241,1,e001240
0.7102363705635071,0.0,e001431,1,e001241
0.7102363705635071,0.0,e001432,1,e001431
0.7102363705635071,0.0,e001433,1,e001432
0.7102363705635071,0.0,e001047,1,e001433
0.22154954075813293,0.0,e001048,1,e001047
0.22154954075813293,0.0,e001049,1,e001048
0.22154954075813293,0.0,e000855,1,e001049
0.1385049670934677,0.0,e000856,1,e000855
0.1385049670934677,0.0,e000857,1,e000856
0.6258580088615417,0.0,e001243,1,e001242
0.6258580088615417,0.0,e001244,1,e001243
0.6258580088615417,0.0,e001434,1,e001244
0.6258580088615417,0.0,e001435,1,e001434
0.6258580088615417,0.0,e001436,1,e001435
0.6258580088615417,0.0,e000858,1,e001436
0.347847044467926,0.0,e000859,1,e000858
0.347847044467926,0.0,e000860,1,e000859
0.347847044467926,0.0,e001050,1,e000860
0.23275844752788544,0.0,e001051,1,e001050
0.23275844752788544,0.0,e001052,1,e001051
0.7281010746955872,0.0,e001246,1,e001245
0.7281010746955872,0.0,e001247,1,e001246
0.7281010746955872,0.0,e001437,1,e001247
0.7281010746955872,0.0,e001438,1,e001437
0.7281010746955872,0.0,e001439,1,e001438
0.7281010746955872,0.0,e000861,1,e001439
0.13281755149364471,0.0,e000862,1,e000861
0.13281755149364471,0.0,e000863,1,e000862
0.14804857969284058,0.0,e001053,1,e000863
0.14804857969284058,0.0,e001054,1,e001053
0.14804857969284058,0.0,e001055,1,e001054
0.15560758113861084,0.0,e000865,1,e000864
0.15560758113861084,0.0,e000866,1,e000865
0.8095441460609436,0.0,e001248,1,e000866
0.8095441460609436,0.0,e001249,1,e001248
0.8095441460609436,0.0,e001250,1,e001249
0.8095441460609436,0.0,e001440,1,e001250
0.8095441460609436,0.0,e001441,1,e001440
0.8095441460609436,0.0,e001442,1,e001441
0.8095441460609436,0.0,e001056,1,e001442
0.39868873357772827,0.0,e001057,1,e001056
0.39868873357772827,0.0,e001058,1,e001057
0.8435938954353333,0.0,e001252,1,e001251
0.8435938954353333,0.0,e001253,1,e001252
0.8435938954353333,0.0,e001443,1,e001253
0.8435938954353333,0.0,e001444,1,e001443
0.8435938954353333,0.0,e001445,1,e001444
0.8435938954353333,0.0,e000867,1,e001445
0.033905260264873505,0.0,e000868,1,e000867
0.033905260264873505,0.0,e000869,1,e000868
0.033905260264873505,0.0,e001059,1,e000869
0.015688493847846985,0.0,e001060,1,e001059
0.015688493847846985,0.0,e001061,1,e001060
0.8705224990844727,0.0,e001255,1,e001254
0.8705224990844727,0.0,e001256,1,e001255
0.8705224990844727,0.0,e001446,1,e001256
0.8705224990844727,0.0,e001447,1,e001446
0.8705224990844727,0.0,e001448,1,e001447
0.8705224990844727,0.0,e000870,1,e001448
0.0364549458026886,0.0,e000871,1,e000870
0.0364549458026886,0.0,e000872,1,e000871
0.0364549458026886,0.0,e001062,1,e000872
0.01115309726446867,0.0,e001063,1,e001062
0.01115309726446867,0.0,e001064,1,e001063
0.04646359384059906,0.009760502725839615,e000874,1,e000873
0.04646359384059906,0.009760502725839615,e000875,1,e000874
0.5064858198165894,0.0,e001257,1,e000875
0.5064858198165894,0.0,e001258,1,e001257
0.5064858198165894,0.0,e001259,1,e001258
0.5064858198165894,0.0,e001449,1,e001259
0.5064858198165894,0.0,e001450,1,e001449
0.5064858198165894,0.0,e001451,1,e001450
0.5064858198165894,0.0,e001065,1,e001451
0.03607935830950737,0.0,e001066,1,e001065
0.03607935830950737,0.0,e001067,1,e001066
0.012252922169864178,0.005171115742996335,e000877,1,e000876
0.012252922169864178,0.005171115742996335,e000878,1,e000877
0.1789793223142624,0.0,e001068,1,e000878
0.1789793223142624,0.0,e001069,1,e001068
0.1789793223142624,0.0,e001070,1,e001069
0.6732963919639587,0.0,e001260,1,e001070
0.6732963919639587,0.0,e001261,1,e001260
0.6732963919639587,0.0,e001262,1,e001261
0.6732963919639587,0.0,e001452,1,e001262
0.6732963919639587,0.0,e001453,1,e001452
0.6732963919639587,0.0,e001454,1,e001453
0.7314348220825195,0.0,e001264,1,e001263
0.7314348220825195,0.0,e001265,1,e001264
0.7314348220825195,0.0,e001455,1,e001265
0.7314348220825195,0.0,e001456,1,e001455
0.7314348220825195,0.0,e001457,1,e001456
0.7314348220825195,0.0,e001071,1,e001457
0.3428307771682739,0.0,e001072,1,e001071
0.3428307771682739,0.0,e001073,1,e001072
0.3428307771682739,0.0,e000879,1,e001073
0.009138805791735649,0.0012358532985672355,e000880,1,e000879
0.009138805791735649,0.0012358532985672355,e000881,1,e000880
0.04081834852695465,0.12352072075009346,e000883,1,e000882
0.04081834852695465,0.12352072075009346,e000884,1,e000883
0.40226811170578003,0.0,e001074,1,e000884
0.40226811170578003,0.0,e001075,1,e001074
0.40226811170578003,0.0,e001076,1,e001075
0.7296863794326782,0.0,e001266,1,e001076
0.7296863794326782,0.0,e001267,1,e001266
0.7296863794326782,0.0,e001268,1,e001267
0.7296863794326782,0.0,e001458,1,e001268
0.7296863794326782,0.0,e001459,1,e001458
0.7296863794326782,0.0,e001460,1,e001459
0.024948755279183388,0.014024604111909866,e000886,1,e000885
0.024948755279183388,0.014024604111909866,e000887,1,e000886
0.34541547298431396,0.0,e001077,1,e000887
0.34541547298431396,0.0,e001078,1,e001077
0.34541547298431396,0.0,e001079,1,e001078
0.7299603223800659,0.0,e001269,1,e001079
0.7299603223800659,0.0,e001270,1,e001269
0.7299603223800659,0.0,e001271,1,e001270
0.7299603223800659,0.0,e001461,1,e001271
0.7299603223800659,0.0,e001462,1,e001461
0.7299603223800659,0.0,e001463,1,e001462
0.7469967007637024,0.0,e001273,1,e001272
0.7469967007637024,0.0,e001274,1,e001273
0.7469967007637024,0.0,e001464,1,e001274
0.7469967007637024,0.0,e001465,1,e001464
0.7469967007637024,0.0,e001466,1,e001465
0.7469967007637024,0.0,e000888,1,e001466
0.006656007841229439,0.0036699569318443537,e000889,1,e000888
0.006656007841229439,0.0036699569318443537,e000890,1,e000889
0.3229486644268036,0.0,e001080,1,e000890
0.3229486644268036,0.0,e001081,1,e001080
0.3229486644268036,0.0,e001082,1,e001081
0.35749322175979614,0.0,e001084,1,e001083
0.35749322175979614,0.0,e001085,1,e001084
0.7265108823776245,0.0,e001275,1,e001085
0.7265108823776245,0.0,e001276,1,e001275
0.7265108823776245,0.0,e001277,1,e001276
0.7265108823776245,0.0,e001467,1,e001277
0.7265108823776245,0.0,e001468,1,e001467
0.7265108823776245,0.0,e001469,1,e001468
0.7265108823776245,0.0,e000891,1,e001469
0.021438144147396088,0.0,e000892,1,e000891
0.021438144147396088,0.0,e000893,1,e000892
0.2555914521217346,0.4469011425971985,e001087,1,e001086
0.2555914521217346,0.4469011425971985,e001088,1,e001087
0.7095365524291992,0.0,e001278,1,e001088
0.7095365524291992,0.0,e001279,1,e001278
0.7095365524291992,0.0,e001280,1,e001279
0.7095365524291992,0.0,e001470,1,e001280
0.7095365524291992,0.0,e001471,1,e001470
0.7095365524291992,0.0,e001472,1,e001471
0.7095365524291992,0.0,e000894,1,e001472
0.061523448675870895,0.0,e000895,1,e000894
0.061523448675870895,0.0,e000896,1,e000895
0.25075265765190125,0.4722215384244919,e001090,1,e001089
0.25075265765190125,0.4722215384244919,e001091,1,e001090
0.6580289006233215,0.0,e001281,1,e001091
0.6580289006233215,0.0,e001282,1,e001281
0.6580289006233215,0.0,e001283,1,e001282
0.6580289006233215,0.0,e001473,1,e001283
0.6580289006233215,0.0,e001474,1,e001473
0.6580289006233215,0.0,e001475,1,e001474
0.6580289006233215,0.0,e000897,1,e001475
0.15945592522621155,0.0,e000898,1,e000897
0.15945592522621155,0.0,e000899,1,e000898
0.6294373273849487,0.0,e001285,1,e001284
0.6294373273849487,0.0,e001286,1,e001285
0.6294373273849487,0.0,e001476,1,e001286
0.6294373273849487,0.0,e001477,1,e001476
0.6294373273849487,0.0,e001478,1,e001477
0.6294373273849487,0.0,e000900,1,e001478
0.5403810143470764,0.0,e000901,1,e000900
0.5403810143470764,0.0,e000902,1,e000901
0.5403810143470764,0.0,e001092,1,e000902
0.4798390567302704,0.0,e001093,1,e001092
0.4798390567302704,0.0,e001094,1,e001093
0.19390088319778442,0.0,e001096,1,e001095
0.19390088319778442,0.0,e001097,1,e001096
0.5418887138366699,0.0,e001287,1,e001097
0.5418887138366699,0.0,e001288,1,e001287
0.5418887138366699,0.0,e001289,1,e001288
0.5418887138366699,0.0,e001479,1,e001289
0.5418887138366699,0.0,e001480,1,e001479
0.5418887138366699,0.0,e001481,1,e001480
0.816920280456543,0.0,e000903,1,e001481
0.816920280456543,0.0,e000904,1,e000903
0.816920280456543,0.0,e000905,1,e000904
0.3604394495487213,0.0,e001099,1,e001098
0.3604394495487213,0.0,e001100,1,e001099
0.594852089881897,0.0,e001290,1,e001100
0.594852089881897,0.0,e001291,1,e001290
0.594852089881897,0.0,e001292,1,e001291
0.594852089881897,0.0,e001482,1,e001292
0.594852089881897,0.0,e001483,1,e001482
0.594852089881897,0.0,e001484,1,e001483
0.594852089881897,0.0,e000906,1,e001484
0.548153817653656,0.0,e000907,1,e000906
0.548153817653656,0.0,e000908,1,e000907
0.6762499809265137,0.0,e000910,1,e000909
0.6762499809265137,0.0,e000911,1,e000910
0.794743001461029,0.0,e001293,1,e000911
0.794743001461029,0.0,e001294,1,e001293
0.794743001461029,0.0,e001295,1,e001294
0.794743001461029,0.0,e001485,1,e001295
0.794743001461029,0.0,e001486,1,e001485
0.794743001461029,0.0,e001487,1,e001486
0.794743001461029,0.0,e001101,1,e001487
0.36390960216522217,0.0,e001102,1,e001101
0.36390960216522217,0.0,e001103,1,e001102
0.2815614938735962,0.0,e001105,1,e001104
0.2815614938735962,0.0,e001106,1,e001105
0.492322713136673,0.0,e001296,1,e001106
0.492322713136673,0.0,e001297,1,e001296
0.492322713136673,0.0,e001298,1,e001297
0.492322713136673,0.0,e001488,1,e001298
0.492322713136673,0.0,e001489,1,e001488
0.492322713136673,0.0,e001490,1,e001489
0.7113659381866455,0.0,e000912,1,e001490
0.7113659381866455,0.0,e000913,1,e000912
0.7113659381866455,0.0,e000914,1,e000913
0.3038882911205292,0.0,e000916,1,e000915
0.3038882911205292,0.0,e000917,1,e000916
0.5593205690383911,0.0,e001299,1,e000917
0.5593205690383911,0.0,e001300,1,e001299
0.5593205690383911,0.0,e001301,1,e001300
0.5593205690383911,0.0,e001491,1,e001301
0.5593205690383911,0.0,e001492,1,e001491
0.5593205690383911,0.0,e001493,1,e001492
0.5593205690383911,0.0,e001107,1,e001493
0.41171586513519287,0.0,e001108,1,e001107
0.41171586513519287,0.0,e001109,1,e001108
0.32356902956962585,0.0,e000919,1,e000918
0.32356902956962585,0.0,e000920,1,e000919
0.5427477955818176,0.0,e001302,1,e000920
0.5427477955818176,0.11157281696796417,e001303,1,e001302
0.5427477955818176,0.11157281696796417,e001304,1,e001303
0.5427477955818176,0.11157281696796417,e001494,1,e001304
0.5427477955818176,0.11157281696796417,e001495,1,e001494
0.5427477955818176,0.11157281696796417,e001496,1,e001495
0.5427477955818176,0.0,e001110,1,e001496
0.5040315389633179,0.0,e001111,1,e001110
0.5040315389633179,0.0,e001112,1,e001111
0.7703917622566223,0.18394844233989716,e001306,1,e001305
0.7703917622566223,0.18394844233989716,e001307,1,e001306
0.7703917622566223,0.18394844233989716,e001497,1,e001307
0.7703917622566223,0.18394844233989716,e001498,1,e001497
0.7703917622566223,0.18394844233989716,e001499,1,e001498
0.7703917622566223,0.0,e000921,1,e001499
0.1510690599679947,0.0,e000922,1,e000921
0.1510690599679947,0.0,e000923,1,e000922
0.3483505845069885,0.0,e001113,1,e000923
0.3483505845069885,0.0,e001114,1,e001113
0.3483505845069885,0.0,e001115,1,e001114
0.24389024078845978,0.2487163171172142,e000925,1,e000924
0.24389024078845978,0.2487163171172142,e000926,1,e000925
0.24389024078845978,0.0,e001116,1,e000926
0.22526617348194122,0.0,e001117,1,e001116
0.22526617348194122,0.0,e001118,1,e001117
0.22526617348194122,0.0,e001308,1,e001118
0.1141766756772995,0.022745445370674133,e001309,1,e001308
0.1141766756772995,0.022745445370674133,e001310,1,e001309
0.1141766756772995,0.022745445370674133,e001500,1,e001310
0.1141766756772995,0.022745445370674133,e001501,1,e001500
0.1141766756772995,0.022745445370674133,e001502,1,e001501
0.48969221115112305,0.0,e001120,1,e001119
0.48969221115112305,0.0,e001121,1,e001120
0.48969221115112305,0.0,e000927,1,e001121
0.17223308980464935,0.0,e000928,1,e000927
0.17223308980464935,0.0,e000929,1,e000928
0.4350988268852234,0.0,e001311,1,e000929
0.4350988268852234,0.4102173447608948,e001312,1,e001311
0.4350988268852234,0.4102173447608948,e001313,1,e001312
0.4350988268852234,0.4102173447608948,e001503,1,e001313
0.4350988268852234,0.4102173447608948,e001504,1,e001503
0.4350988268852234,0.4102173447608948,e001505,1,e001504
0.5379117727279663,0.45007526874542236,e001123,1,e001122
0.5379117727279663,0.45007526874542236,e001124,1,e001123
0.5379117727279663,0.0,e000930,1,e001124
0.30706337094306946,0.0,e000931,1,e000930
0.30706337094306946,0.0,e000932,1,e000931
0.30706337094306946,0.0,e001314,1,e000932
0.171946719288826,0.0,e001315,1,e001314
0.171946719288826,0.0,e001316,1,e001315
0.171946719288826,0.0,e001506,1,e001316
0.171946719288826,0.0,e001507,1,e001506
0.171946719288826,0.0,e001508,1,e001507
0.5390246510505676,0.4690435230731964,e001126,1,e001125
0.5390246510505676,0.4690435230731964,e001127,1,e001126
0.5390246510505676,0.0,e000933,1,e001127
0.16662892699241638,0.0,e000934,1,e000933
0.16662892699241638,0.0,e000935,1,e000934
0.2936687469482422,0.0,e001317,1,e000935
0.2936687469482422,0.0,e001318,1,e001317
0.2936687469482422,0.0,e001319,1,e001318
0.2936687469482422,0.0,e001509,1,e001319
0.2936687469482422,0.0,e001510,1,e001509
0.2936687469482422,0.0,e001511,1,e001510
0.4954196512699127,0.0,e001321,1,e001320
0.4954196512699127,0.0,e001322,1,e001321
0.4954196512699127,0.0,e001512,1,e001322
0.4954196512699127,0.0,e001513,1,e001512
0.4954196512699127,0.0,e001514,1,e001513
0.4954196512699127,0.0,e000936,1,e001514
0.3081743121147156,0.0,e000937,1,e000936
0.3081743121147156,0.0,e000938,1,e000937
0.44206464290618896,0.0,e001128,1,e000938
0.44206464290618896,0.0,e001129,1,e001128
0.44206464290618896,0.0,e001130,1,e001129
0.24205859005451202,0.0,e000940,1,e000939
0.24205859005451202,0.0,e000941,1,e000940
0.33489280939102173,0.0,e001323,1,e000941
0.33489280939102173,0.0,e001324,1,e001323
0.33489280939102173,0.0,e001325,1,e001324
0.33489280939102173,0.0,e001515,1,e001325
0.33489280939102173,0.0,e001516,1,e001515
0.33489280939102173,0.0,e001517,1,e001516
0.33489280939102173,0.0,e001131,1,e001517
0.25663432478904724,0.0,e001132,1,e001131
0.25663432478904724,0.0,e001133,1,e001132
0.16730500757694244,0.0,e000943,1,e000942
0.16730500757694244,0.0,e000944,1,e000943
0.16730500757694244,0.0,e001134,1,e000944
0.1341174840927124,0.0,e001135,1,e001134
0.1341174840927124,0.0,e001136,1,e001135
0.20012781023979187,0.0,e001326,1,e001136
0.20012781023979187,0.0,e001327,1,e001326
0.20012781023979187,0.0,e001328,1,e001327
0.20012781023979187,0.0,e001518,1,e001328
0.20012781023979187,0.0,e001519,1,e001518
0.20012781023979187,0.0,e001520,1,e001519
0.19844815135002136,0.0,e000946,1,e000945
0.19844815135002136,0.0,e000947,1,e000946
0.49557793140411377,0.0,e001137,1,e000947
0.49557793140411377,0.0,e001138,1,e001137
0.49557793140411377,0.0,e001139,1,e001138
0.49557793140411377,0.0,e001329,1,e001139
0.4152611792087555,0.0,e001330,1,e001329
0.4152611792087555,0.0,e001331,1,e001330
0.4152611792087555,0.0,e001521,1,e001331
0.4152611792087555,0.0,e001522,1,e001521
0.4152611792087555,0.0,e001523,1,e001522
0.5527503490447998,0.0,e000949,1,e000948
0.5527503490447998,0.0,e000950,1,e000949
0.5527503490447998,0.0,e001332,1,e000950
0.015547055751085281,0.0,e001333,1,e001332
0.015547055751085281,0.0,e001334,1,e001333
0.015547055751085281,0.0,e001524,1,e001334
0.015547055751085281,0.0,e001525,1,e001524
0.015547055751085281,0.0,e001526,1,e001525
0.33118245005607605,0.0,e001140,1,e001526
0.33118245005607605,0.0,e001141,1,e001140
0.33118245005607605,0.0,e001142,1,e001141
0.508375346660614,0.09575007855892181,e001336,1,e001335
0.508375346660614,0.09575007855892181,e001337,1,e001336
0.508375346660614,0.09575007855892181,e001527,1,e001337
0.508375346660614,0.09575007855892181,e001528,1,e001527
0.508375346660614,0.09575007855892181,e001529,1,e001528
0.508375346660614,0.0,e000951,1,e001529
0.42797768115997314,0.0,e000952,1,e000951
0.42797768115997314,0.0,e000953,1,e000952
0.4530448317527771,0.0,e001143,1,e000953
0.4530448317527771,0.0,e001144,1,e001143
0.4530448317527771,0.0,e001145,1,e001144
0.49571722745895386,0.2632659524679184,e001339,1,e001338
0.49571722745895386,0.2632659524679184,e001340,1,e001339
0.49571722745895386,0.2632659524679184,e001530,1,e001340
0.49571722745895386,0.2632659524679184,e001531,1,e001530
0.49571722745895386,0.2632659524679184,e001532,1,e001531
0.49571722745895386,0.0,e000954,1,e001532
0.1947261393070221,0.0,e000955,1,e000954
0.1947261393070221,0.0,e000956,1,e000955
0.34584105014801025,0.0,e001146,1,e000956
0.34584105014801025,0.0,e001147,1,e001146
0.34584105014801025,0.0,e001148,1,e001147
0.5072351694107056,0.3245805352926254,e001342,1,e001341
0.5072351694107056,0.3245805352926254,e001343,1,e001342
0.5072351694107056,0.3245805352926254,e001533,1,e001343
0.5072351694107056,0.3245805352926254,e001534,1,e001533
0.5072351694107056,0.3245805352926254,e001535,1,e001534
0.7632348537445068,0.0,e001149,1,e001535
0.7632348537445068,0.0,e001150,1,e001149
0.7632348537445068,0.0,e001151,1,e001150
0.7632348537445068,0.0,e000957,1,e001151
0.3179154396057129,0.0,e000958,1,e000957
0.3179154396057129,0.0,e000959,1,e000958
0.5180810689926147,0.3286389708518982,e001345,1,e001344
0.5180810689926147,0.3286389708518982,e001346,1,e001345
0.5180810689926147,0.3286389708518982,e001536,1,e001346
0.5180810689926147,0.3286389708518982,e001537,1,e001536
0.5180810689926147,0.3286389708518982,e001538,1,e001537
0.5180810689926147,0.0,e000960,1,e001538
0.18257129192352295,0.0,e000961,1,e000960
0.18257129192352295,0.0,e000962,1,e000961
0.8675398230552673,0.0,e001152,1,e000962
0.8675398230552673,0.0,e001153,1,e001152
0.8675398230552673,0.0,e001154,1,e001153
0.529636025428772,0.3230743557214737,e001348,1,e001347
0.529636025428772,0.3230743557214737,e001349,1,e001348
0.529636025428772,0.3230743557214737,e001539,1,e001349
0.529636025428772,0.3230743557214737,e001540,1,e001539
0.529636025428772,0.3230743557214737,e001541,1,e001540
0.739216685295105,0.0,e001155,1,e001541
0.739216685295105,0.0,e001156,1,e001155
0.739216685295105,0.0,e001157,1,e001156
0.739216685295105,0.0,e000963,1,e001157
0.01560891978442669,0.0,e000964,1,e000963
0.01560891978442669,0.0,e000965,1,e000964
